 frequency       out             out             load            load           
 1.00000000e+00  2.56481546e+03 -1.93029766e+00  2.56481546e+03 -1.93513222e+00 
 1.02329299e+00  2.56481540e+03 -1.97526001e+00  2.56481539e+03 -1.98020719e+00 
 1.04712855e+00  2.56481532e+03 -2.02126967e+00  2.56481532e+03 -2.02633208e+00 
 1.07151931e+00  2.56481525e+03 -2.06835103e+00  2.56481525e+03 -2.07353136e+00 
 1.09647820e+00  2.56481517e+03 -2.11652905e+00  2.56481517e+03 -2.12183004e+00 
 1.12201845e+00  2.56481509e+03 -2.16582928e+00  2.56481508e+03 -2.17125375e+00 
 1.14815362e+00  2.56481500e+03 -2.21627785e+00  2.56481500e+03 -2.22182867e+00 
 1.17489755e+00  2.56481491e+03 -2.26790151e+00  2.56481491e+03 -2.27358163e+00 
 1.20226443e+00  2.56481482e+03 -2.32072764e+00  2.56481481e+03 -2.32654006e+00 
 1.23026877e+00  2.56481472e+03 -2.37478424e+00  2.56481471e+03 -2.38073205e+00 
 1.25892541e+00  2.56481462e+03 -2.43009997e+00  2.56481461e+03 -2.43618633e+00 
 1.28824955e+00  2.56481451e+03 -2.48670417e+00  2.56481450e+03 -2.49293229e+00 
 1.31825674e+00  2.56481440e+03 -2.54462684e+00  2.56481439e+03 -2.55100003e+00 
 1.34896288e+00  2.56481428e+03 -2.60389869e+00  2.56481427e+03 -2.61042033e+00 
 1.38038426e+00  2.56481415e+03 -2.66455115e+00  2.56481415e+03 -2.67122471e+00 
 1.41253754e+00  2.56481402e+03 -2.72661639e+00  2.56481402e+03 -2.73344538e+00 
 1.44543977e+00  2.56481389e+03 -2.79012729e+00  2.56481388e+03 -2.79711536e+00 
 1.47910839e+00  2.56481374e+03 -2.85511755e+00  2.56481374e+03 -2.86226839e+00 
 1.51356125e+00  2.56481359e+03 -2.92162161e+00  2.56481359e+03 -2.92893901e+00 
 1.54881662e+00  2.56481344e+03 -2.98967474e+00  2.56481343e+03 -2.99716258e+00 
 1.58489319e+00  2.56481327e+03 -3.05931301e+00  2.56481327e+03 -3.06697527e+00 
 1.62181010e+00  2.56481310e+03 -3.13057336e+00  2.56481309e+03 -3.13841410e+00 
 1.65958691e+00  2.56481292e+03 -3.20349356e+00  2.56481291e+03 -3.21151693e+00 
 1.69824365e+00  2.56481274e+03 -3.27811227e+00  2.56481273e+03 -3.28632253e+00 
 1.73780083e+00  2.56481254e+03 -3.35446906e+00  2.56481253e+03 -3.36287055e+00 
 1.77827941e+00  2.56481233e+03 -3.43260440e+00  2.56481232e+03 -3.44120160e+00 
 1.81970086e+00  2.56481212e+03 -3.51255974e+00  2.56481211e+03 -3.52135718e+00 
 1.86208714e+00  2.56481189e+03 -3.59437745e+00  2.56481188e+03 -3.60337981e+00 
 1.90546072e+00  2.56481165e+03 -3.67810091e+00  2.56481164e+03 -3.68731297e+00 
 1.94984460e+00  2.56481141e+03 -3.76377453e+00  2.56481139e+03 -3.77320116e+00 
 1.99526231e+00  2.56481115e+03 -3.85144371e+00  2.56481113e+03 -3.86108992e+00 
 2.04173794e+00  2.56481088e+03 -3.94115494e+00  2.56481086e+03 -3.95102584e+00 
 2.08929613e+00  2.56481059e+03 -4.03295579e+00  2.56481058e+03 -4.04305660e+00 
 2.13796209e+00  2.56481029e+03 -4.12689492e+00  2.56481028e+03 -4.13723101e+00 
 2.18776162e+00  2.56480998e+03 -4.22302214e+00  2.56480996e+03 -4.23359899e+00 
 2.23872114e+00  2.56480965e+03 -4.32138841e+00  2.56480964e+03 -4.33221163e+00 
 2.29086765e+00  2.56480931e+03 -4.42204589e+00  2.56480929e+03 -4.43312121e+00 
 2.34422882e+00  2.56480895e+03 -4.52504794e+00  2.56480893e+03 -4.53638124e+00 
 2.39883292e+00  2.56480858e+03 -4.63044918e+00  2.56480856e+03 -4.64204645e+00 
 2.45470892e+00  2.56480819e+03 -4.73830547e+00  2.56480817e+03 -4.75017288e+00 
 2.51188643e+00  2.56480778e+03 -4.84867401e+00  2.56480775e+03 -4.86081784e+00 
 2.57039578e+00  2.56480735e+03 -4.96161330e+00  2.56480732e+03 -4.97404000e+00 
 2.63026799e+00  2.56480689e+03 -5.07718323e+00  2.56480687e+03 -5.08989939e+00 
 2.69153480e+00  2.56480642e+03 -5.19544507e+00  2.56480640e+03 -5.20845742e+00 
 2.75422870e+00  2.56480593e+03 -5.31646151e+00  2.56480590e+03 -5.32977695e+00 
 2.81838293e+00  2.56480541e+03 -5.44029671e+00  2.56480538e+03 -5.45392231e+00 
 2.88403150e+00  2.56480487e+03 -5.56701633e+00  2.56480484e+03 -5.58095931e+00 
 2.95120923e+00  2.56480430e+03 -5.69668754e+00  2.56480427e+03 -5.71095529e+00 
 3.01995172e+00  2.56480371e+03 -5.82937909e+00  2.56480367e+03 -5.84397918e+00 
 3.09029543e+00  2.56480308e+03 -5.96516133e+00  2.56480305e+03 -5.98010149e+00 
 3.16227766e+00  2.56480243e+03 -6.10410625e+00  2.56480240e+03 -6.11939440e+00 
 3.23593657e+00  2.56480175e+03 -6.24628749e+00  2.56480171e+03 -6.26193174e+00 
 3.31131121e+00  2.56480104e+03 -6.39178044e+00  2.56480100e+03 -6.40778909e+00 
 3.38844156e+00  2.56480029e+03 -6.54066223e+00  2.56480025e+03 -6.55704377e+00 
 3.46736850e+00  2.56479950e+03 -6.69301179e+00  2.56479946e+03 -6.70977490e+00 
 3.54813389e+00  2.56479868e+03 -6.84890988e+00  2.56479864e+03 -6.86606344e+00 
 3.63078055e+00  2.56479782e+03 -7.00843914e+00  2.56479778e+03 -7.02599226e+00 
 3.71535229e+00  2.56479692e+03 -7.17168415e+00  2.56479687e+03 -7.18964613e+00 
 3.80189396e+00  2.56479598e+03 -7.33873145e+00  2.56479593e+03 -7.35711181e+00 
 3.89045145e+00  2.56479500e+03 -7.50966959e+00  2.56479494e+03 -7.52847807e+00 
 3.98107171e+00  2.56479396e+03 -7.68458918e+00  2.56479391e+03 -7.70383576e+00 
 4.07380278e+00  2.56479288e+03 -7.86358295e+00  2.56479282e+03 -7.88327783e+00 
 4.16869383e+00  2.56479175e+03 -8.04674578e+00  2.56479169e+03 -8.06689941e+00 
 4.26579519e+00  2.56479056e+03 -8.23417478e+00  2.56479050e+03 -8.25479783e+00 
 4.36515832e+00  2.56478932e+03 -8.42596928e+00  2.56478925e+03 -8.44707270e+00 
 4.46683592e+00  2.56478802e+03 -8.62223096e+00  2.56478795e+03 -8.64382593e+00 
 4.57088190e+00  2.56478666e+03 -8.82306385e+00  2.56478658e+03 -8.84516182e+00 
 4.67735141e+00  2.56478523e+03 -9.02857441e+00  2.56478515e+03 -9.05118709e+00 
 4.78630092e+00  2.56478374e+03 -9.23887156e+00  2.56478366e+03 -9.26201095e+00 
 4.89778819e+00  2.56478218e+03 -9.45406678e+00  2.56478209e+03 -9.47774514e+00 
 5.01187234e+00  2.56478054e+03 -9.67427413e+00  2.56478045e+03 -9.69850402e+00 
 5.12861384e+00  2.56477883e+03 -9.89961033e+00  2.56477873e+03 -9.92440458e+00 
 5.24807460e+00  2.56477703e+03 -1.01301948e+01  2.56477693e+03 -1.01555666e+01 
 5.37031796e+00  2.56477515e+03 -1.03661498e+01  2.56477505e+03 -1.03921125e+01 
 5.49540874e+00  2.56477318e+03 -1.06076003e+01  2.56477307e+03 -1.06341678e+01 
 5.62341325e+00  2.56477112e+03 -1.08546744e+01  2.56477101e+03 -1.08818607e+01 
 5.75439937e+00  2.56476897e+03 -1.11075029e+01  2.56476884e+03 -1.11353224e+01 
 5.88843655e+00  2.56476671e+03 -1.13662199e+01  2.56476658e+03 -1.13946874e+01 
 6.02559586e+00  2.56476434e+03 -1.16309625e+01  2.56476421e+03 -1.16600930e+01 
 6.16595002e+00  2.56476186e+03 -1.19018710e+01  2.56476172e+03 -1.19316800e+01 
 6.30957344e+00  2.56475927e+03 -1.21790889e+01  2.56475912e+03 -1.22095922e+01 
 6.45654229e+00  2.56475655e+03 -1.24627631e+01  2.56475640e+03 -1.24939770e+01 
 6.60693448e+00  2.56475371e+03 -1.27530441e+01  2.56475355e+03 -1.27849849e+01 
 6.76082975e+00  2.56475073e+03 -1.30500855e+01  2.56475056e+03 -1.30827704e+01 
 6.91830971e+00  2.56474761e+03 -1.33540449e+01  2.56474743e+03 -1.33874910e+01 
 7.07945784e+00  2.56474434e+03 -1.36650832e+01  2.56474416e+03 -1.36993083e+01 
 7.24435960e+00  2.56474092e+03 -1.39833653e+01  2.56474073e+03 -1.40183876e+01 
 7.41310241e+00  2.56473734e+03 -1.43090598e+01  2.56473714e+03 -1.43448978e+01 
 7.58577575e+00  2.56473359e+03 -1.46423393e+01  2.56473338e+03 -1.46790120e+01 
 7.76247117e+00  2.56472967e+03 -1.49833803e+01  2.56472945e+03 -1.50209072e+01 
 7.94328235e+00  2.56472555e+03 -1.53323636e+01  2.56472532e+03 -1.53707645e+01 
 8.12830516e+00  2.56472125e+03 -1.56894740e+01  2.56472101e+03 -1.57287693e+01 
 8.31763771e+00  2.56471674e+03 -1.60549006e+01  2.56471649e+03 -1.60951112e+01 
 8.51138038e+00  2.56471202e+03 -1.64288372e+01  2.56471176e+03 -1.64699843e+01 
 8.70963590e+00  2.56470708e+03 -1.68114816e+01  2.56470680e+03 -1.68535871e+01 
 8.91250938e+00  2.56470190e+03 -1.72030367e+01  2.56470161e+03 -1.72461229e+01 
 9.12010839e+00  2.56469648e+03 -1.76037099e+01  2.56469618e+03 -1.76477996e+01 
 9.33254301e+00  2.56469080e+03 -1.80137132e+01  2.56469049e+03 -1.80588298e+01 
 9.54992586e+00  2.56468486e+03 -1.84332639e+01  2.56468453e+03 -1.84794313e+01 
 9.77237221e+00  2.56467864e+03 -1.88625842e+01  2.56467829e+03 -1.89098268e+01 
 1.00000000e+01  2.56467212e+03 -1.93019013e+01  2.56467176e+03 -1.93502442e+01 
 1.02329299e+01  2.56466530e+03 -1.97514480e+01  2.56466492e+03 -1.98009168e+01 
 1.04712855e+01  2.56465815e+03 -2.02114622e+01  2.56465775e+03 -2.02620832e+01 
 1.07151931e+01  2.56465067e+03 -2.06821875e+01  2.56465025e+03 -2.07339874e+01 
 1.09647820e+01  2.56464284e+03 -2.11638731e+01  2.56464240e+03 -2.12168794e+01 
 1.12201845e+01  2.56463463e+03 -2.16567740e+01  2.56463418e+03 -2.17110148e+01 
 1.14815362e+01  2.56462605e+03 -2.21611511e+01  2.56462556e+03 -2.22166552e+01 
 1.17489755e+01  2.56461705e+03 -2.26772713e+01  2.56461655e+03 -2.27340681e+01 
 1.20226443e+01  2.56460763e+03 -2.32054079e+01  2.56460710e+03 -2.32635274e+01 
 1.23026877e+01  2.56459775e+03 -2.37458399e+01  2.56459720e+03 -2.38053129e+01 
 1.25892541e+01  2.56458742e+03 -2.42988540e+01  2.56458684e+03 -2.43597122e+01 
 1.28824955e+01  2.56457661e+03 -2.48647426e+01  2.56457600e+03 -2.49270180e+01 
 1.31825674e+01  2.56456529e+03 -2.54438048e+01  2.56456465e+03 -2.55075306e+01 
 1.34896288e+01  2.56455343e+03 -2.60363472e+01  2.56455277e+03 -2.61015570e+01 
 1.38038426e+01  2.56454101e+03 -2.66426831e+01  2.56454032e+03 -2.67094115e+01 
 1.41253754e+01  2.56452801e+03 -2.72631332e+01  2.56452729e+03 -2.73314155e+01 
 1.44543977e+01  2.56451440e+03 -2.78980255e+01  2.56451364e+03 -2.79678980e+01 
 1.47910839e+01  2.56450015e+03 -2.85476959e+01  2.56449935e+03 -2.86191955e+01 
 1.51356125e+01  2.56448522e+03 -2.92124876e+01  2.56448439e+03 -2.92856523e+01 
 1.54881662e+01  2.56446959e+03 -2.98927523e+01  2.56446872e+03 -2.99676207e+01 
 1.58489319e+01  2.56445323e+03 -3.05888494e+01  2.56445231e+03 -3.06654612e+01 
 1.62181010e+01  2.56443609e+03 -3.13011468e+01  2.56443513e+03 -3.13795426e+01 
 1.65958691e+01  2.56441815e+03 -3.20300207e+01  2.56441714e+03 -3.21102421e+01 
 1.69824365e+01  2.56439936e+03 -3.27758564e+01  2.56439831e+03 -3.28579457e+01 
 1.73780083e+01  2.56437968e+03 -3.35390477e+01  2.56437858e+03 -3.36230485e+01 
 1.77827941e+01  2.56435906e+03 -3.43199972e+01  2.56435791e+03 -3.44059539e+01 
 1.81970086e+01  2.56433749e+03 -3.51191181e+01  2.56433628e+03 -3.52070763e+01 
 1.86208714e+01  2.56431490e+03 -3.59368320e+01  2.56431364e+03 -3.60268381e+01 
 1.90546072e+01  2.56429125e+03 -3.67735703e+01  2.56428992e+03 -3.68656721e+01 
 1.94984460e+01  2.56426648e+03 -3.76297745e+01  2.56426510e+03 -3.77240207e+01 
 1.99526231e+01  2.56424055e+03 -3.85058964e+01  2.56423910e+03 -3.86023369e+01 
 2.04173794e+01  2.56421339e+03 -3.94023981e+01  2.56421187e+03 -3.95010839e+01 
 2.08929613e+01  2.56418496e+03 -4.03197522e+01  2.56418337e+03 -4.04207356e+01 
 2.13796209e+01  2.56415519e+03 -4.12584424e+01  2.56415352e+03 -4.13617768e+01 
 2.18776162e+01  2.56412399e+03 -4.22189627e+01  2.56412224e+03 -4.23247028e+01 
 2.23872114e+01  2.56409135e+03 -4.32018204e+01  2.56408952e+03 -4.33100222e+01 
 2.29086765e+01  2.56405716e+03 -4.42075327e+01  2.56405525e+03 -4.43182533e+01 
 2.34422882e+01  2.56402137e+03 -4.52366291e+01  2.56401937e+03 -4.53499271e+01 
 2.39883292e+01  2.56398389e+03 -4.62896511e+01  2.56398180e+03 -4.64055865e+01 
 2.45470892e+01  2.56394465e+03 -4.73671530e+01  2.56394245e+03 -4.74857871e+01 
 2.51188643e+01  2.56390354e+03 -4.84697008e+01  2.56390124e+03 -4.85910962e+01 
 2.57039578e+01  2.56386051e+03 -4.95978755e+01  2.56385811e+03 -4.97220966e+01 
 2.63026799e+01  2.56381546e+03 -5.07522696e+01  2.56381294e+03 -5.08793818e+01 
 2.69153480e+01  2.56376829e+03 -5.19334894e+01  2.56376565e+03 -5.20635600e+01 
 2.75422870e+01  2.56371889e+03 -5.31421552e+01  2.56371613e+03 -5.32752531e+01 
 2.81838293e+01  2.56366715e+03 -5.43789007e+01  2.56366426e+03 -5.45150961e+01 
 2.88403150e+01  2.56361300e+03 -5.56443764e+01  2.56360996e+03 -5.57837412e+01 
 2.95120923e+01  2.56355629e+03 -5.69392451e+01  2.56355311e+03 -5.70818530e+01 
 3.01995172e+01  2.56349691e+03 -5.82641854e+01  2.56349359e+03 -5.84101117e+01 
 3.09029543e+01  2.56343472e+03 -5.96198905e+01  2.56343124e+03 -5.97692122e+01 
 3.16227766e+01  2.56336962e+03 -6.10070720e+01  2.56336598e+03 -6.11598679e+01 
 3.23593657e+01  2.56330146e+03 -6.24264547e+01  2.56329764e+03 -6.25828055e+01 
 3.31131121e+01  2.56323009e+03 -6.38787808e+01  2.56322609e+03 -6.40387691e+01 
 3.38844156e+01  2.56315534e+03 -6.53648083e+01  2.56315115e+03 -6.55285184e+01 
 3.46736850e+01  2.56307709e+03 -6.68853151e+01  2.56307271e+03 -6.70528333e+01 
 3.54813389e+01  2.56299516e+03 -6.84410936e+01  2.56299057e+03 -6.86125083e+01 
 3.63078055e+01  2.56290935e+03 -7.00329540e+01  2.56290455e+03 -7.02083556e+01 
 3.71535229e+01  2.56281953e+03 -7.16617277e+01  2.56281450e+03 -7.18412086e+01 
 3.80189396e+01  2.56272546e+03 -7.33282604e+01  2.56272019e+03 -7.35119152e+01 
 3.89045145e+01  2.56262699e+03 -7.50334212e+01  2.56262147e+03 -7.52213467e+01 
 3.98107171e+01  2.56252388e+03 -7.67780950e+01  2.56251810e+03 -7.69703900e+01 
 4.07380278e+01  2.56241590e+03 -7.85631863e+01  2.56240985e+03 -7.87599522e+01 
 4.16869383e+01  2.56230286e+03 -8.03896233e+01  2.56229653e+03 -8.05909636e+01 
 4.26579519e+01  2.56218449e+03 -8.22583498e+01  2.56217786e+03 -8.24643703e+01 
 4.36515832e+01  2.56206057e+03 -8.41703353e+01  2.56205363e+03 -8.43811444e+01 
 4.46683592e+01  2.56193081e+03 -8.61265656e+01  2.56192354e+03 -8.63422741e+01 
 4.57088190e+01  2.56179494e+03 -8.81280518e+01  2.56178733e+03 -8.83487731e+01 
 4.67735141e+01  2.56165270e+03 -9.01758274e+01  2.56164473e+03 -9.04016774e+01 
 4.78630092e+01  2.56150376e+03 -9.22709442e+01  2.56149542e+03 -9.25020414e+01 
 4.89778819e+01  2.56134782e+03 -9.44144807e+01  2.56133909e+03 -9.46509464e+01 
 5.01187234e+01  2.56118458e+03 -9.66075391e+01  2.56117543e+03 -9.68494974e+01 
 5.12861384e+01  2.56101364e+03 -9.88512408e+01  2.56100406e+03 -9.90988184e+01 
 5.24807460e+01  2.56083467e+03 -1.01146736e+02  2.56082463e+03 -1.01400062e+02 
 5.37031796e+01  2.56064729e+03 -1.03495197e+02  2.56063679e+03 -1.03754405e+02 
 5.49540874e+01  2.56045113e+03 -1.05897823e+02  2.56044013e+03 -1.06163049e+02 
 5.62341325e+01  2.56024574e+03 -1.08355836e+02  2.56023423e+03 -1.08627218e+02 
 5.75439937e+01  2.56003071e+03 -1.10870485e+02  2.56001865e+03 -1.11148165e+02 
 5.88843655e+01  2.55980558e+03 -1.13443045e+02  2.55979295e+03 -1.13727168e+02 
 6.02559586e+01  2.55956988e+03 -1.16074819e+02  2.55955666e+03 -1.16365533e+02 
 6.16595002e+01  2.55932313e+03 -1.18767135e+02  2.55930929e+03 -1.19064592e+02 
 6.30957344e+01  2.55906479e+03 -1.21521349e+02  2.55905030e+03 -1.21825704e+02 
 6.45654229e+01  2.55879432e+03 -1.24338844e+02  2.55877915e+03 -1.24650254e+02 
 6.60693448e+01  2.55851118e+03 -1.27221034e+02  2.55849530e+03 -1.27539663e+02 
 6.76082975e+01  2.55821477e+03 -1.30169359e+02  2.55819814e+03 -1.30495372e+02 
 6.91830971e+01  2.55790446e+03 -1.33185288e+02  2.55788705e+03 -1.33518855e+02 
 7.07945784e+01  2.55757959e+03 -1.36270318e+02  2.55756136e+03 -1.36611611e+02 
 7.24435960e+01  2.55723952e+03 -1.39425980e+02  2.55722044e+03 -1.39775176e+02 
 7.41310241e+01  2.55688350e+03 -1.42653829e+02  2.55686352e+03 -1.43011109e+02 
 7.58577575e+01  2.55651081e+03 -1.45955454e+02  2.55648989e+03 -1.46321003e+02 
 7.76247117e+01  2.55612070e+03 -1.49332477e+02  2.55609879e+03 -1.49706483e+02 
 7.94328235e+01  2.55571230e+03 -1.52786541e+02  2.55568937e+03 -1.53169197e+02 
 8.12830516e+01  2.55528480e+03 -1.56319328e+02  2.55526079e+03 -1.56710832e+02 
 8.31763771e+01  2.55483731e+03 -1.59932550e+02  2.55481217e+03 -1.60333104e+02 
 8.51138038e+01  2.55436889e+03 -1.63627949e+02  2.55434257e+03 -1.64037757e+02 
 8.70963590e+01  2.55387859e+03 -1.67407298e+02  2.55385103e+03 -1.67826571e+02 
 8.91250938e+01  2.55336538e+03 -1.71272402e+02  2.55333653e+03 -1.71701355e+02 
 9.12010839e+01  2.55282819e+03 -1.75225094e+02  2.55279799e+03 -1.75663946e+02 
 9.33254301e+01  2.55226594e+03 -1.79267248e+02  2.55223432e+03 -1.79716222e+02 
 9.54992586e+01  2.55167744e+03 -1.83400757e+02  2.55164434e+03 -1.83860083e+02 
 9.77237221e+01  2.55106152e+03 -1.87627556e+02  2.55102687e+03 -1.88097468e+02 
 1.00000000e+02  2.55041687e+03 -1.91949603e+02  2.55038060e+03 -1.92430338e+02 
 1.02329299e+02  2.54974219e+03 -1.96368891e+02  2.54970422e+03 -1.96860693e+02 
 1.04712855e+02  2.54903610e+03 -2.00887443e+02  2.54899635e+03 -2.01390562e+02 
 1.07151931e+02  2.54829716e+03 -2.05507314e+02  2.54825554e+03 -2.06022002e+02 
 1.09647820e+02  2.54752382e+03 -2.10230581e+02  2.54748026e+03 -2.10757098e+02 
 1.12201845e+02  2.54671457e+03 -2.15059365e+02  2.54666897e+03 -2.15597974e+02 
 1.14815362e+02  2.54586771e+03 -2.19995798e+02  2.54581998e+03 -2.20546769e+02 
 1.17489755e+02  2.54498154e+03 -2.25042052e+02  2.54493158e+03 -2.25605660e+02 
 1.20226443e+02  2.54405427e+03 -2.30200322e+02  2.54400197e+03 -2.30776848e+02 
 1.23026877e+02  2.54308403e+03 -2.35472830e+02  2.54302929e+03 -2.36062559e+02 
 1.25892541e+02  2.54206883e+03 -2.40861818e+02  2.54201153e+03 -2.41465042e+02 
 1.28824955e+02  2.54100668e+03 -2.46369562e+02  2.54094671e+03 -2.46986579e+02 
 1.31825674e+02  2.53989541e+03 -2.51998348e+02  2.53983263e+03 -2.52629460e+02 
 1.34896288e+02  2.53873280e+03 -2.57750491e+02  2.53866710e+03 -2.58396007e+02 
 1.38038426e+02  2.53751652e+03 -2.63628319e+02  2.53744776e+03 -2.64288553e+02 
 1.41253754e+02  2.53624419e+03 -2.69634188e+02  2.53617222e+03 -2.70309462e+02 
 1.44543977e+02  2.53491325e+03 -2.75770454e+02  2.53483793e+03 -2.76461093e+02 
 1.47910839e+02  2.53352108e+03 -2.82039496e+02  2.53344225e+03 -2.82745834e+02 
 1.51356125e+02  2.53206491e+03 -2.88443698e+02  2.53198241e+03 -2.89166072e+02 
 1.54881662e+02  2.53054193e+03 -2.94985461e+02  2.53045560e+03 -2.95724215e+02 
 1.58489319e+02  2.52894910e+03 -3.01667171e+02  2.52885875e+03 -3.02422656e+02 
 1.62181010e+02  2.52728337e+03 -3.08491240e+02  2.52718883e+03 -3.09263811e+02 
 1.65958691e+02  2.52554146e+03 -3.15460056e+02  2.52544253e+03 -3.16250077e+02 
 1.69824365e+02  2.52372003e+03 -3.22576014e+02  2.52361651e+03 -3.23383853e+02 
 1.73780083e+02  2.52181557e+03 -3.29841496e+02  2.52170726e+03 -3.30667526e+02 
 1.77827941e+02  2.51982442e+03 -3.37258863e+02  2.51971108e+03 -3.38103464e+02 
 1.81970086e+02  2.51774276e+03 -3.44830459e+02  2.51762419e+03 -3.45694018e+02 
 1.86208714e+02  2.51556670e+03 -3.52558618e+02  2.51544265e+03 -3.53441526e+02 
 1.90546072e+02  2.51329208e+03 -3.60445613e+02  2.51316229e+03 -3.61348268e+02 
 1.94984460e+02  2.51091467e+03 -3.68493717e+02  2.51077889e+03 -3.69416521e+02 
 1.99526231e+02  2.50843000e+03 -3.76705129e+02  2.50828797e+03 -3.77648492e+02 
 2.04173794e+02  2.50583348e+03 -3.85082013e+02  2.50568491e+03 -3.86046347e+02 
 2.08929613e+02  2.50312033e+03 -3.93626477e+02  2.50296493e+03 -3.94612202e+02 
 2.13796209e+02  2.50028558e+03 -4.02340557e+02  2.50012303e+03 -4.03348098e+02 
 2.18776162e+02  2.49732407e+03 -4.11226220e+02  2.49715407e+03 -4.12256004e+02 
 2.23872114e+02  2.49423049e+03 -4.20285355e+02  2.49405269e+03 -4.21337817e+02 
 2.29086765e+02  2.49099929e+03 -4.29519749e+02  2.49081335e+03 -4.30595328e+02 
 2.34422882e+02  2.48762474e+03 -4.38931100e+02  2.48743030e+03 -4.40030237e+02 
 2.39883292e+02  2.48410091e+03 -4.48520979e+02  2.48389759e+03 -4.49644122e+02 
 2.45470892e+02  2.48042165e+03 -4.58290842e+02  2.48020906e+03 -4.59438439e+02 
 2.51188643e+02  2.47658061e+03 -4.68242006e+02  2.47635835e+03 -4.69414511e+02 
 2.57039578e+02  2.47257123e+03 -4.78375643e+02  2.47233887e+03 -4.79573511e+02 
 2.63026799e+02  2.46838675e+03 -4.88692767e+02  2.46814386e+03 -4.89916457e+02 
 2.69153480e+02  2.46402017e+03 -4.99194204e+02  2.46376628e+03 -5.00444177e+02 
 2.75422870e+02  2.45946425e+03 -5.09880591e+02  2.45919888e+03 -5.11157308e+02 
